     #Energy           s          py          pz          px         dxy         dyz         dz2         dxz         dx2       tot  
   -26.93739     0.00000     0.00000     0.00000     0.00000     0.00000     0.00000     0.00000     0.00000     0.00000     0.00000
   -26.81339     0.00000     0.00000     0.00000     0.00000     0.00000     0.00000     0.00000     0.00000     0.00000     0.00000
   -26.68839     0.00000     0.00000     0.00000     0.00000     0.00000     0.00000     0.00000     0.00000     0.00000     0.00000
   -26.56339     0.00000     0.00000     0.00000     0.00000     0.00000     0.00000     0.00000     0.00000     0.00000     0.00000
   -26.43939     0.00000     0.00000     0.00000     0.00000     0.00000     0.00000     0.00000     0.00000     0.00000     0.00000
   -26.31439     0.00000     0.00000     0.00000     0.00000     0.00000     0.00000     0.00000     0.00000     0.00000     0.00000
   -26.18939     0.00000     0.00000     0.00000     0.00000     0.00000     0.00000     0.00000     0.00000     0.00000     0.00000
   -26.06539     0.00000     0.00000     0.00000     0.00000     0.00000     0.00000     0.00000     0.00000     0.00000     0.00000
   -25.94039     0.00000     0.00000     0.00000     0.00000     0.00000     0.00000     0.00000     0.00000     0.00000     0.00000
   -25.81539     0.00000     0.00000     0.00000     0.00000     0.00000     0.00000     0.00000     0.00000     0.00000     0.00000
   -25.69139     0.00000     0.00000     0.00000     0.00000     0.00000     0.00000     0.00000     0.00000     0.00000     0.00000
   -25.56639     0.00000     0.00000     0.00000     0.00000     0.00000     0.00000     0.00000     0.00000     0.00000     0.00000
   -25.44139     0.00000     0.00000     0.00000     0.00000     0.00000     0.00000     0.00000     0.00000     0.00000     0.00000
   -25.31739     0.00000     0.00000     0.00000     0.00000     0.00000     0.00000     0.00000     0.00000     0.00000     0.00000
   -25.19239     0.00000     0.00000     0.00000     0.00000     0.00000     0.00000     0.00000     0.00000     0.00000     0.00000
   -25.06739     0.00001     0.00000     0.00000     0.00000     0.00000     0.00000     0.00000     0.00000     0.00000     0.00002
   -24.94239     0.00002     0.00001     0.00000     0.00001     0.00001     0.00000     0.00001     0.00000     0.00001     0.00006
   -24.81839     0.00004     0.00001     0.00000     0.00003     0.00001     0.00000     0.00001     0.00000     0.00002     0.00012
   -24.69339     0.00005     0.00002     0.00000     0.00004     0.00001     0.00000     0.00002     0.00000     0.00003     0.00018
   -24.56839     0.00007     0.00002     0.00000     0.00005     0.00002     0.00000     0.00002     0.00000     0.00004     0.00023
   -24.44439     0.00009     0.00003     0.00000     0.00006     0.00002     0.00000     0.00002     0.00000     0.00005     0.00027
   -24.31939     0.00011     0.00003     0.00000     0.00007     0.00002     0.00000     0.00002     0.00000     0.00005     0.00030
   -24.19439     0.00013     0.00003     0.00000     0.00008     0.00002     0.00000     0.00003     0.00000     0.00006     0.00033
   -24.07039     0.00015     0.00003     0.00000     0.00008     0.00002     0.00000     0.00003     0.00000     0.00006     0.00036
   -23.94539     0.00019     0.00003     0.00000     0.00008     0.00002     0.00000     0.00003     0.00000     0.00006     0.00040
   -23.82039     0.00021     0.00003     0.00000     0.00008     0.00002     0.00000     0.00003     0.00000     0.00006     0.00043
   -23.69639     0.00022     0.00003     0.00000     0.00008     0.00002     0.00000     0.00003     0.00000     0.00006     0.00043
   -23.57139     0.00022     0.00003     0.00000     0.00008     0.00002     0.00000     0.00003     0.00000     0.00006     0.00044
   -23.44639     0.00022     0.00003     0.00000     0.00008     0.00002     0.00000     0.00003     0.00000     0.00006     0.00044
   -23.32239     0.00025     0.00003     0.00001     0.00008     0.00002     0.00000     0.00003     0.00000     0.00006     0.00047
   -23.19739     0.00040     0.00004     0.00003     0.00008     0.00002     0.00001     0.00004     0.00000     0.00006     0.00066
   -23.07239     0.00082     0.00006     0.00008     0.00009     0.00002     0.00003     0.00006     0.00000     0.00006     0.00120
   -22.94739     0.00146     0.00008     0.00016     0.00009     0.00002     0.00006     0.00010     0.00000     0.00006     0.00204
   -22.82339     0.00201     0.00011     0.00024     0.00009     0.00002     0.00008     0.00013     0.00000     0.00007     0.00274
   -22.69839     0.00226     0.00012     0.00027     0.00010     0.00002     0.00009     0.00015     0.00000     0.00007     0.00306
   -22.57339     0.00232     0.00012     0.00028     0.00010     0.00002     0.00009     0.00015     0.00000     0.00007     0.00314
   -22.44939     0.00232     0.00012     0.00028     0.00010     0.00002     0.00009     0.00015     0.00000     0.00007     0.00315
   -22.32439     0.00232     0.00012     0.00028     0.00010     0.00002     0.00009     0.00015     0.00000     0.00007     0.00315
   -22.19939     0.00232     0.00012     0.00028     0.00010     0.00002     0.00009     0.00015     0.00000     0.00007     0.00315
   -22.07539     0.00232     0.00012     0.00028     0.00010     0.00002     0.00009     0.00015     0.00000     0.00007     0.00315
   -21.95039     0.00232     0.00012     0.00028     0.00010     0.00002     0.00009     0.00015     0.00000     0.00007     0.00315
   -21.82539     0.00232     0.00012     0.00028     0.00010     0.00002     0.00009     0.00015     0.00000     0.00007     0.00315
   -21.70139     0.00232     0.00012     0.00028     0.00010     0.00002     0.00009     0.00015     0.00000     0.00007     0.00315
   -21.57639     0.00232     0.00012     0.00028     0.00010     0.00002     0.00009     0.00015     0.00000     0.00007     0.00315
   -21.45139     0.00232     0.00012     0.00028     0.00010     0.00002     0.00009     0.00015     0.00000     0.00007     0.00315
   -21.32639     0.00232     0.00012     0.00028     0.00010     0.00002     0.00009     0.00015     0.00000     0.00007     0.00315
   -21.20239     0.00232     0.00012     0.00028     0.00010     0.00002     0.00009     0.00015     0.00000     0.00007     0.00315
   -21.07739     0.00232     0.00012     0.00028     0.00010     0.00002     0.00009     0.00015     0.00000     0.00007     0.00315
   -20.95239     0.00232     0.00012     0.00028     0.00010     0.00002     0.00009     0.00015     0.00000     0.00007     0.00315
   -20.82839     0.00232     0.00012     0.00028     0.00010     0.00002     0.00009     0.00015     0.00000     0.00007     0.00315
   -20.70339     0.00232     0.00012     0.00028     0.00010     0.00002     0.00009     0.00015     0.00000     0.00007     0.00315
   -20.57839     0.00232     0.00012     0.00028     0.00010     0.00002     0.00009     0.00015     0.00000     0.00007     0.00315
   -20.45439     0.00232     0.00012     0.00028     0.00010     0.00002     0.00009     0.00015     0.00000     0.00007     0.00315
   -20.32939     0.00232     0.00012     0.00028     0.00010     0.00002     0.00009     0.00015     0.00000     0.00007     0.00315
   -20.20439     0.00233     0.00012     0.00028     0.00010     0.00002     0.00009     0.00015     0.00000     0.00007     0.00315
   -20.08039     0.00234     0.00012     0.00028     0.00010     0.00002     0.00009     0.00015     0.00000     0.00007     0.00317
   -19.95539     0.00253     0.00013     0.00029     0.00011     0.00003     0.00010     0.00015     0.00003     0.00008     0.00346
   -19.83039     0.00463     0.00018     0.00043     0.00021     0.00010     0.00015     0.00015     0.00021     0.00012     0.00618
   -19.70639     0.02018     0.00046     0.00118     0.00053     0.00031     0.00034     0.00015     0.00075     0.00027     0.02418
   -19.58139     0.08942     0.00155     0.00405     0.00110     0.00071     0.00087     0.00015     0.00170     0.00058     0.10013
   -19.45639     0.26398     0.00413     0.01078     0.00173     0.00119     0.00186     0.00016     0.00266     0.00099     0.28748
   -19.33139     0.52697     0.00796     0.02020     0.00249     0.00159     0.00307     0.00017     0.00328     0.00141     0.56715
   -19.20739     0.81565     0.01230     0.02901     0.00404     0.00185     0.00400     0.00019     0.00359     0.00177     0.87242
   -19.08239     1.11055     0.01697     0.03602     0.00683     0.00203     0.00452     0.00022     0.00379     0.00210     1.18303
   -18.95739     1.37387     0.02130     0.04139     0.00998     0.00218     0.00482     0.00025     0.00398     0.00241     1.46018
   -18.83339     1.56915     0.02480     0.04516     0.01298     0.00239     0.00520     0.00028     0.00425     0.00273     1.66694
   -18.70839     1.77455     0.02912     0.04917     0.01727     0.00281     0.00599     0.00033     0.00480     0.00328     1.88731
   -18.58339     2.05585     0.03536     0.05494     0.02352     0.00346     0.00721     0.00041     0.00564     0.00407     2.19046
   -18.45939     2.32347     0.04138     0.06072     0.02932     0.00404     0.00834     0.00048     0.00640     0.00479     2.47894
   -18.33439     2.47171     0.04475     0.06410     0.03243     0.00435     0.00892     0.00052     0.00679     0.00516     2.63872
   -18.20939     2.51737     0.04581     0.06520     0.03335     0.00443     0.00908     0.00053     0.00690     0.00526     2.68793
   -18.08539     2.52491     0.04599     0.06539     0.03350     0.00444     0.00911     0.00053     0.00691     0.00528     2.69605
   -17.96039     2.52555     0.04600     0.06540     0.03351     0.00445     0.00911     0.00054     0.00691     0.00528     2.69674
   -17.83539     2.52558     0.04600     0.06540     0.03351     0.00445     0.00911     0.00054     0.00691     0.00528     2.69677
   -17.71139     2.52558     0.04600     0.06540     0.03351     0.00445     0.00911     0.00054     0.00691     0.00528     2.69677
   -17.58639     2.52558     0.04600     0.06540     0.03351     0.00445     0.00911     0.00054     0.00691     0.00528     2.69677
   -17.46139     2.52558     0.04600     0.06540     0.03351     0.00445     0.00911     0.00054     0.00691     0.00528     2.69677
   -17.33639     2.52558     0.04600     0.06540     0.03351     0.00445     0.00911     0.00054     0.00691     0.00528     2.69677
   -17.21239     2.52558     0.04600     0.06540     0.03351     0.00445     0.00911     0.00054     0.00691     0.00528     2.69677
   -17.08739     2.52558     0.04600     0.06540     0.03351     0.00445     0.00911     0.00054     0.00691     0.00528     2.69677
   -16.96239     2.52558     0.04600     0.06540     0.03351     0.00445     0.00911     0.00054     0.00691     0.00528     2.69677
   -16.83839     2.52558     0.04600     0.06540     0.03351     0.00445     0.00911     0.00054     0.00691     0.00528     2.69678
   -16.71339     2.52559     0.04600     0.06541     0.03351     0.00445     0.00911     0.00054     0.00691     0.00528     2.69680
   -16.58839     2.52575     0.04601     0.06542     0.03352     0.00445     0.00913     0.00054     0.00691     0.00528     2.69700
   -16.46439     2.52660     0.04606     0.06550     0.03354     0.00445     0.00920     0.00057     0.00692     0.00529     2.69813
   -16.33939     2.52898     0.04620     0.06572     0.03360     0.00445     0.00942     0.00067     0.00693     0.00531     2.70128
   -16.21439     2.53255     0.04642     0.06604     0.03369     0.00446     0.00976     0.00080     0.00694     0.00535     2.70602
   -16.09039     2.53551     0.04660     0.06632     0.03376     0.00447     0.01003     0.00092     0.00696     0.00538     2.70993
   -15.96539     2.53683     0.04668     0.06644     0.03380     0.00447     0.01015     0.00097     0.00696     0.00539     2.71169
   -15.84039     2.53715     0.04669     0.06647     0.03381     0.00447     0.01018     0.00098     0.00697     0.00539     2.71210
   -15.71539     2.53719     0.04670     0.06647     0.03381     0.00447     0.01019     0.00098     0.00697     0.00539     2.71215
   -15.59139     2.53719     0.04670     0.06647     0.03381     0.00447     0.01019     0.00098     0.00697     0.00539     2.71216
   -15.46639     2.53720     0.04670     0.06647     0.03382     0.00448     0.01019     0.00098     0.00697     0.00540     2.71221
   -15.34139     2.53726     0.04672     0.06647     0.03385     0.00452     0.01019     0.00100     0.00697     0.00543     2.71239
   -15.21739     2.53740     0.04675     0.06647     0.03394     0.00460     0.01019     0.00105     0.00697     0.00549     2.71286
   -15.09239     2.53763     0.04680     0.06648     0.03407     0.00470     0.01019     0.00110     0.00697     0.00559     2.71354
   -14.96739     2.53786     0.04684     0.06649     0.03419     0.00477     0.01020     0.00115     0.00698     0.00568     2.71416
   -14.84339     2.53801     0.04686     0.06650     0.03426     0.00481     0.01020     0.00118     0.00698     0.00573     2.71452
   -14.71839     2.53806     0.04686     0.06650     0.03428     0.00482     0.01021     0.00118     0.00698     0.00575     2.71465
   -14.59339     2.53807     0.04686     0.06650     0.03429     0.00482     0.01021     0.00118     0.00698     0.00576     2.71468
   -14.46939     2.53807     0.04686     0.06650     0.03429     0.00482     0.01021     0.00118     0.00698     0.00576     2.71468
   -14.34439     2.53807     0.04686     0.06650     0.03429     0.00482     0.01021     0.00118     0.00698     0.00576     2.71468
   -14.21939     2.53807     0.04686     0.06650     0.03429     0.00482     0.01021     0.00118     0.00698     0.00576     2.71468
   -14.09539     2.53807     0.04686     0.06650     0.03429     0.00482     0.01021     0.00118     0.00698     0.00576     2.71468
   -13.97039     2.53807     0.04686     0.06650     0.03429     0.00482     0.01021     0.00118     0.00698     0.00576     2.71468
   -13.84539     2.53807     0.04686     0.06650     0.03429     0.00482     0.01021     0.00118     0.00698     0.00576     2.71468
   -13.72039     2.53807     0.04686     0.06650     0.03429     0.00482     0.01021     0.00118     0.00698     0.00576     2.71468
   -13.59639     2.53807     0.04686     0.06650     0.03429     0.00482     0.01021     0.00118     0.00698     0.00576     2.71468
   -13.47139     2.53807     0.04686     0.06650     0.03429     0.00482     0.01021     0.00118     0.00698     0.00576     2.71468
   -13.34639     2.53807     0.04686     0.06650     0.03429     0.00482     0.01021     0.00118     0.00698     0.00576     2.71468
   -13.22239     2.53807     0.04686     0.06650     0.03429     0.00482     0.01021     0.00118     0.00698     0.00576     2.71468
   -13.09739     2.53807     0.04686     0.06650     0.03429     0.00482     0.01021     0.00118     0.00698     0.00576     2.71468
   -12.97239     2.53807     0.04686     0.06650     0.03429     0.00482     0.01021     0.00118     0.00698     0.00576     2.71468
   -12.84839     2.53807     0.04686     0.06650     0.03429     0.00482     0.01021     0.00118     0.00698     0.00576     2.71468
   -12.72339     2.53807     0.04686     0.06650     0.03429     0.00482     0.01021     0.00118     0.00698     0.00576     2.71468
   -12.59839     2.53807     0.04686     0.06650     0.03429     0.00482     0.01021     0.00118     0.00698     0.00576     2.71468
   -12.47439     2.53807     0.04686     0.06650     0.03429     0.00482     0.01021     0.00118     0.00698     0.00576     2.71468
   -12.34939     2.53807     0.04686     0.06650     0.03429     0.00482     0.01021     0.00118     0.00698     0.00576     2.71468
   -12.22439     2.53807     0.04686     0.06650     0.03429     0.00482     0.01021     0.00118     0.00698     0.00576     2.71468
   -12.10039     2.53807     0.04686     0.06650     0.03429     0.00482     0.01021     0.00118     0.00698     0.00576     2.71468
   -11.97539     2.53807     0.04686     0.06650     0.03429     0.00482     0.01021     0.00118     0.00698     0.00576     2.71468
   -11.85039     2.53807     0.04686     0.06650     0.03429     0.00482     0.01021     0.00118     0.00698     0.00576     2.71468
   -11.72539     2.53807     0.04686     0.06650     0.03429     0.00482     0.01021     0.00118     0.00698     0.00576     2.71468
   -11.60139     2.53807     0.04686     0.06650     0.03429     0.00482     0.01021     0.00118     0.00698     0.00576     2.71468
   -11.47639     2.53807     0.04686     0.06650     0.03429     0.00482     0.01021     0.00118     0.00698     0.00576     2.71468
   -11.35139     2.53807     0.04686     0.06650     0.03429     0.00482     0.01021     0.00118     0.00698     0.00576     2.71468
   -11.22739     2.53807     0.04686     0.06650     0.03429     0.00482     0.01021     0.00118     0.00698     0.00576     2.71468
   -11.10239     2.53807     0.04686     0.06650     0.03429     0.00482     0.01021     0.00118     0.00698     0.00576     2.71468
   -10.97739     2.53807     0.04686     0.06650     0.03429     0.00482     0.01021     0.00118     0.00698     0.00576     2.71468
   -10.85339     2.53807     0.04686     0.06650     0.03429     0.00482     0.01021     0.00118     0.00698     0.00576     2.71468
   -10.72839     2.53807     0.04686     0.06650     0.03429     0.00482     0.01021     0.00118     0.00698     0.00576     2.71468
   -10.60339     2.53807     0.04686     0.06650     0.03429     0.00482     0.01021     0.00118     0.00698     0.00576     2.71468
   -10.47939     2.53807     0.04686     0.06650     0.03429     0.00482     0.01021     0.00118     0.00698     0.00576     2.71468
   -10.35439     2.53807     0.04686     0.06650     0.03429     0.00482     0.01021     0.00118     0.00698     0.00576     2.71468
   -10.22939     2.53807     0.04686     0.06650     0.03429     0.00482     0.01021     0.00118     0.00698     0.00576     2.71468
   -10.10539     2.53807     0.04686     0.06650     0.03429     0.00482     0.01021     0.00118     0.00698     0.00576     2.71468
    -9.98039     2.53807     0.04686     0.06650     0.03429     0.00482     0.01021     0.00118     0.00698     0.00576     2.71468
    -9.85539     2.53807     0.04686     0.06650     0.03429     0.00482     0.01021     0.00118     0.00698     0.00576     2.71468
    -9.73039     2.53807     0.04686     0.06650     0.03429     0.00482     0.01021     0.00118     0.00698     0.00576     2.71468
    -9.60639     2.53807     0.04686     0.06650     0.03429     0.00482     0.01021     0.00118     0.00698     0.00576     2.71468
    -9.48139     2.53807     0.04686     0.06650     0.03429     0.00482     0.01021     0.00118     0.00698     0.00576     2.71468
    -9.35639     2.53807     0.04686     0.06650     0.03429     0.00482     0.01021     0.00118     0.00698     0.00576     2.71468
    -9.23239     2.53807     0.04686     0.06650     0.03429     0.00482     0.01021     0.00118     0.00698     0.00576     2.71468
    -9.10739     2.53807     0.04686     0.06650     0.03429     0.00482     0.01021     0.00118     0.00698     0.00576     2.71468
    -8.98239     2.53807     0.04686     0.06650     0.03429     0.00482     0.01021     0.00118     0.00698     0.00576     2.71468
    -8.85839     2.53807     0.04686     0.06650     0.03429     0.00482     0.01021     0.00118     0.00698     0.00576     2.71468
    -8.73339     2.53807     0.04686     0.06650     0.03429     0.00482     0.01021     0.00118     0.00698     0.00576     2.71468
    -8.60839     2.53807     0.04687     0.06651     0.03429     0.00482     0.01021     0.00118     0.00698     0.00576     2.71468
    -8.48439     2.53811     0.04689     0.06652     0.03430     0.00482     0.01021     0.00119     0.00699     0.00576     2.71478
